t [min],inflow [cfs],outflow [cfs]
0,0,0
10,60,2.4
20,120,17.9
30,180,62.8
40,240,124.5
50,300,182.6
60,360,230.4
70,320,259
80,280,269.5
90,240,266.8
100,200,254.3
110,160,234.7
120,120,206.4
130,80,167.8
140,40,123.5
150,0,80
160,0,
170,0,
180,0,
190,0,
200,0,
210,0,
